Id,Time[ns],SD card (SD mode): Raw bits,SD card (SD mode): Decoded bits,SD card (SD mode): Decoded fields,SD card (SD mode): Fields,SD card (SD mode): Commands
1,209718192.00,0,,,Start bit,CMD32 (ERASE_WR_BLK_START): CMD32
2,209718208.00,1,,,Transmission: host,
3,209718232.00,1,,,Command: ERASE_WR_BLK_START (32),
4,209718272.00,0,,,,
5,209718312.00,0,,,,
6,209718352.00,0,,,,
7,209718376.00,0,,,,
8,209718392.00,0,,,,
9,209718416.00,0,,,Argument: 0x00000000,
10,209718432.00,0,,,,
11,209718456.00,0,,,,
12,209718496.00,0,,,,
13,209718536.00,0,,,,
14,209718560.00,0,,,,
15,209718576.00,0,,,,
16,209718600.00,0,,,,
17,209718616.00,0,,,,
18,209718640.00,0,,,,
19,209718656.00,0,,,,
20,209718680.00,0,,,,
21,209718696.00,0,,,,
22,209718720.00,0,,,,
23,209718760.00,0,,,,
24,209718800.00,0,,,,
25,209718840.00,0,,,,
26,209718864.00,0,,,,
27,209718880.00,0,,,,
28,209718904.00,0,,,,
29,209718920.00,0,,,,
30,209718984.00,0,,,,
31,209719024.00,0,,,,
32,209719064.00,0,,,,
33,209719104.00,0,,,,
34,209719144.00,0,,,,
35,209719168.00,0,,,,
36,209719184.00,0,,,,
37,210166376.00,0,,,,
38,210166416.00,0,,,,
39,210166456.00,0,,,,
40,210166496.00,0,,,,
41,210166536.00,0,,,CRC: 0x0,
42,210166576.00,0,,,,
43,210166600.00,0,,,,
44,210166616.00,0,,,,
45,210166640.00,0,,,,
46,210166656.00,0,,,,
47,210166680.00,0,,,,
48,210166696.00,0,,,End bit,
49,210166760.00,0,,,Start bit,Response: R1
50,210166800.00,0,,,Transmission: card,
51,210166840.00,0,,,Command: GO_IDLE_STATE (0),
52,210166904.00,0,,,,
53,210166920.00,0,,,,
54,210166944.00,0,,,,
55,210166960.00,0,,,,
56,210166984.00,0,,,,
57,210167064.00,0,OUT_OF_RANGE,Card status,Argument: 0x00000000,
58,210167144.00,0,ADDRESS_ERROR,,,
59,210167168.00,0,BLOCK_LEN_ERROR,,,
60,210167224.00,0,ERASE_SEQ_ERROR,,,
61,210167248.00,0,ERASE_PARAM,,,
62,210167472.00,0,WP_VIOLATION,,,
63,210167512.00,0,CARD_IS_LOCKED,,,
64,210167552.00,0,LOCK_UNLOCK_FAILED,,,
65,210167592.00,0,COM_CRC_ERROR,,,
66,210167632.00,0,ILLEGAL_COMMAND,,,
67,210167672.00,0,CARD_ECC_FAILED,,,
68,210167712.00,0,CC_ERROR,,,
69,210167736.00,0,ERROR,,,
70,210167752.00,0,Reserved,,,
71,210167776.00,0,Reserved for DEFERRED_RESPONSE,,,
72,210167816.00,0,CSD_OVERWRITE,,,
73,210167856.00,0,WP_ERASE_SKIP,,,
74,210167896.00,0,CARD_ECC_DISABLED,,,
75,210167936.00,0,ERASE_RESET,,,
76,210167976.00,0,CURRENT_STATE,,,
77,210168040.00,0,,,,
78,210168080.00,0,,,,
79,210168160.00,0,,,,
80,210168200.00,0,READY_FOR_DATA,,,
81,210168240.00,0,RSVD,,,
82,210168280.00,0,FX_EVENT,,,
83,210168344.00,0,APP_CMD,,,
84,210168384.00,0,Reserved for SDIO card,,,
85,210168424.00,0,AKE_SEQ_ERROR,,,
86,210168912.00,0,Reserved for application specific commands,,,
87,210169216.00,0,Reserved for manufacturer test mode,,,
88,210170168.00,0,,,,
89,210170512.00,0,,,CRC: 0x0,
90,210171160.00,0,,,,
91,210171544.00,0,,,,
92,210172616.00,0,,,,
93,210175424.00,0,,,,
94,210181336.00,0,,,,
95,210183184.00,0,,,,
96,210183408.00,0,,,End bit,
97,215990400.00,0,,,Start bit,CMD32 (ERASE_WR_BLK_START): CMD32
98,215990464.00,1,,,Transmission: host,
99,215990504.00,1,,,Command: ERASE_WR_BLK_START (32),
100,215990544.00,0,,,,
101,215990584.00,0,,,,
102,215990624.00,0,,,,
103,215990768.00,0,,,,
104,215990808.00,0,,,,
105,220220304.00,0,,,Argument: 0x00000000,
106,220220344.00,0,,,,
107,220220368.00,0,,,,
108,220220408.00,0,,,,
109,220220424.00,0,,,,
110,220220448.00,0,,,,
111,220220464.00,0,,,,
112,220220488.00,0,,,,
113,220220504.00,0,,,,
114,220220528.00,0,,,,
115,220220568.00,0,,,,
116,220220608.00,0,,,,
117,220220648.00,0,,,,
118,220220688.00,0,,,,
119,220220712.00,0,,,,
120,220220728.00,0,,,,
121,220220752.00,0,,,,
122,220220792.00,0,,,,
123,220220808.00,0,,,,
124,220220832.00,0,,,,
125,220220872.00,0,,,,
126,220220912.00,0,,,,
127,220220952.00,0,,,,
128,220220992.00,0,,,,
129,220221032.00,0,,,,
130,220221072.00,0,,,,
131,220221096.00,0,,,,
132,220221112.00,0,,,,
133,220221152.00,0,,,,
134,220221216.00,0,,,,
135,220221416.00,0,,,,
136,220221440.00,0,,,,
137,220221456.00,0,,,CRC: 0x0,
138,220221480.00,0,,,,
139,220221496.00,0,,,,
140,220221600.00,0,,,,
141,220221640.00,0,,,,
142,220221680.00,0,,,,
143,220221720.00,0,,,,
144,220221760.00,0,,,End bit,
145,220221840.00,0,,,Start bit,Response: R1
146,220221864.00,0,,,Transmission: card,
147,220221880.00,0,,,Command: GO_IDLE_STATE (0),
148,220221904.00,0,,,,
149,220221944.00,0,,,,
150,220222024.00,0,,,,
151,220222064.00,0,,,,
152,220222104.00,0,,,,
153,220222144.00,0,OUT_OF_RANGE,Card status,Argument: 0x00000000,
154,220222184.00,0,ADDRESS_ERROR,,,
155,220222224.00,0,BLOCK_LEN_ERROR,,,
156,220260040.00,0,ERASE_SEQ_ERROR,,,
157,220260080.00,0,ERASE_PARAM,,,
158,220260104.00,0,WP_VIOLATION,,,
159,220260144.00,0,CARD_IS_LOCKED,,,
160,220260160.00,0,LOCK_UNLOCK_FAILED,,,
161,220260184.00,0,COM_CRC_ERROR,,,
162,220260200.00,0,ILLEGAL_COMMAND,,,
163,220260224.00,0,CARD_ECC_FAILED,,,
164,220260264.00,0,CC_ERROR,,,
165,220260304.00,0,ERROR,,,
166,220260344.00,0,Reserved,,,
167,220260368.00,0,Reserved for DEFERRED_RESPONSE,,,
168,220260384.00,0,CSD_OVERWRITE,,,
169,220260408.00,0,WP_ERASE_SKIP,,,
170,220260424.00,0,CARD_ECC_DISABLED,,,
171,220260448.00,0,ERASE_RESET,,,
172,220260488.00,0,CURRENT_STATE,,,
173,220260528.00,0,,,,
174,220260568.00,0,,,,
175,220260608.00,0,,,,
176,220260632.00,0,READY_FOR_DATA,,,
177,220260648.00,0,RSVD,,,
178,220260672.00,0,FX_EVENT,,,
179,220260688.00,0,APP_CMD,,,
180,220260712.00,0,Reserved for SDIO card,,,
181,220260752.00,0,AKE_SEQ_ERROR,,,
182,220260792.00,0,Reserved for application specific commands,,,
183,220260832.00,0,Reserved for manufacturer test mode,,,
184,220260936.00,0,,,,
185,220260952.00,0,,,CRC: 0x0,
186,220261176.00,0,,,,
187,220261200.00,0,,,,
188,220261216.00,0,,,,
189,220261280.00,0,,,,
190,220261320.00,0,,,,
191,220261360.00,0,,,,
192,220261400.00,0,,,End bit,
193,248142272.00,0,,,Start bit,CMD32 (ERASE_WR_BLK_START): CMD32
194,248142296.00,1,,,Transmission: host,
195,248142312.00,1,,,Command: ERASE_WR_BLK_START (32),
196,248142336.00,0,,,,
197,248142376.00,0,,,,
198,248142416.00,0,,,,
199,248142456.00,0,,,,
200,248142480.00,0,,,,
201,248142496.00,0,,,Argument: 0x00000000,
202,248142520.00,0,,,,
203,248142536.00,0,,,,
204,248142560.00,0,,,,
205,248142600.00,0,,,,
206,248142640.00,0,,,,
207,248142664.00,0,,,,
208,248142680.00,0,,,,
209,248142704.00,0,,,,
210,248142720.00,0,,,,
211,248142744.00,0,,,,
212,248142760.00,0,,,,
213,248142784.00,0,,,,
214,248142824.00,0,,,,
215,248142864.00,0,,,,
216,248142888.00,0,,,,
217,248142904.00,0,,,,
218,248142928.00,0,,,,
219,248142968.00,0,,,,
220,248143008.00,0,,,,
221,248143048.00,0,,,,
222,248143112.00,0,,,,
223,248143128.00,0,,,,
224,248143152.00,0,,,,
225,248143192.00,0,,,,
226,248143232.00,0,,,,
227,248143256.00,0,,,,
228,248143272.00,0,,,,
229,248596800.00,0,,,,
230,248596840.00,0,,,,
231,248596880.00,0,,,,
232,248596904.00,0,,,,
233,248596944.00,0,,,CRC: 0x0,
234,248596960.00,0,,,,
235,248596984.00,0,,,,
236,248597000.00,0,,,,
237,248597024.00,0,,,,
238,248597064.00,0,,,,
239,248597104.00,0,,,,
240,248597144.00,0,,,End bit,
241,248597184.00,0,,,Start bit,Response: R1
242,248597208.00,0,,,Transmission: card,
243,248597224.00,0,,,Command: GO_IDLE_STATE (0),
244,248597248.00,0,,,,
245,248597288.00,0,,,,
246,248597328.00,0,,,,
247,248597368.00,0,,,,
248,248597432.00,0,,,,
249,248597448.00,0,OUT_OF_RANGE,Card status,Argument: 0x00000000,
250,248597472.00,0,ADDRESS_ERROR,,,
251,248597512.00,0,BLOCK_LEN_ERROR,,,
252,248597552.00,0,ERASE_SEQ_ERROR,,,
253,248597592.00,0,ERASE_PARAM,,,
254,248597696.00,0,WP_VIOLATION,,,
255,248597712.00,0,CARD_IS_LOCKED,,,
256,248597936.00,0,LOCK_UNLOCK_FAILED,,,
257,248597960.00,0,COM_CRC_ERROR,,,
258,248598000.00,0,ILLEGAL_COMMAND,,,
259,248598016.00,0,CARD_ECC_FAILED,,,
260,248598040.00,0,CC_ERROR,,,
261,248598080.00,0,ERROR,,,
262,248598120.00,0,Reserved,,,
263,248598160.00,0,Reserved for DEFERRED_RESPONSE,,,
264,248598200.00,0,CSD_OVERWRITE,,,
265,248598240.00,0,WP_ERASE_SKIP,,,
266,248598264.00,0,CARD_ECC_DISABLED,,,
267,248598280.00,0,ERASE_RESET,,,
268,248598304.00,0,CURRENT_STATE,,,
269,248598344.00,0,,,,
270,248598384.00,0,,,,
271,248598424.00,0,,,,
272,248598464.00,0,READY_FOR_DATA,,,
273,248598568.00,0,RSVD,,,
274,248598608.00,0,FX_EVENT,,,
275,248598648.00,0,APP_CMD,,,
276,248598688.00,0,Reserved for SDIO card,,,
277,248598832.00,0,AKE_SEQ_ERROR,,,
278,248599136.00,0,Reserved for application specific commands,,,
279,248601000.00,0,Reserved for manufacturer test mode,,,
280,248602600.00,0,,,,
281,248604056.00,0,,,CRC: 0x0,
282,248604824.00,0,,,,
283,248604864.00,0,,,,
284,248606400.00,0,,,,
285,248607168.00,0,,,,
286,248607592.00,0,,,,
287,248609008.00,0,,,,
288,248609696.00,0,,,End bit,
289,344067648.00,0,,,Start bit,CMD32 (ERASE_WR_BLK_START): CMD32
290,344067688.00,1,,,Transmission: host,
291,344067728.00,1,,,Command: ERASE_WR_BLK_START (32),
292,344067768.00,0,,,,
293,344067792.00,0,,,,
294,344067808.00,0,,,,
295,344067832.00,0,,,,
296,344067848.00,0,,,,
297,344067872.00,1,,,Argument: 0x80000000,
298,344067912.00,0,,,,
299,344067928.00,0,,,,
300,344067952.00,0,,,,
301,344067992.00,0,,,,
302,344068016.00,0,,,,
303,344068032.00,0,,,,
304,344068056.00,0,,,,
305,344068072.00,0,,,,
306,344068096.00,0,,,,
307,344068112.00,0,,,,
308,344068136.00,0,,,,
309,344068152.00,0,,,,
310,344068176.00,0,,,,
311,344068216.00,0,,,,
312,344068256.00,0,,,,
313,344068296.00,0,,,,
314,344068320.00,0,,,,
315,344068336.00,0,,,,
316,344068360.00,0,,,,
317,344068400.00,0,,,,
318,344068416.00,0,,,,
319,344068440.00,0,,,,
320,344068480.00,0,,,,
321,344068520.00,0,,,,
322,344068544.00,0,,,,
323,344068560.00,0,,,,
324,344068584.00,0,,,,
325,344068600.00,0,,,,
326,344068624.00,0,,,,
327,344068640.00,0,,,,
328,344068664.00,0,,,,
329,344068704.00,0,,,CRC: 0x30,
330,344068744.00,1,,,,
331,344068848.00,1,,,,
332,344068888.00,0,,,,
333,344068928.00,0,,,,
334,344068968.00,0,,,,
335,344069008.00,0,,,,
336,344069152.00,0,,,End bit,
337,347491472.00,0,,,Start bit,Response: R1
338,347491496.00,0,,,Transmission: card,
339,347491512.00,0,,,Command: GO_IDLE_STATE (0),
340,347491576.00,0,,,,
341,347491616.00,0,,,,
342,347491632.00,0,,,,
343,347491656.00,0,,,,
344,347491696.00,0,,,,
345,347491736.00,0,OUT_OF_RANGE,Card status,Argument: 0x00000000,
346,347491776.00,0,ADDRESS_ERROR,,,
347,347491800.00,0,BLOCK_LEN_ERROR,,,
348,347491816.00,0,ERASE_SEQ_ERROR,,,
349,347491840.00,0,ERASE_PARAM,,,
350,347491856.00,0,WP_VIOLATION,,,
351,347491880.00,0,CARD_IS_LOCKED,,,
352,347491960.00,0,LOCK_UNLOCK_FAILED,,,
353,347492000.00,0,COM_CRC_ERROR,,,
354,347492040.00,0,ILLEGAL_COMMAND,,,
355,347492064.00,0,CARD_ECC_FAILED,,,
356,347492080.00,0,CC_ERROR,,,
357,347492104.00,0,ERROR,,,
358,347492144.00,0,Reserved,,,
359,347492184.00,0,Reserved for DEFERRED_RESPONSE,,,
360,347492224.00,0,CSD_OVERWRITE,,,
361,347492264.00,0,WP_ERASE_SKIP,,,
362,347492304.00,0,CARD_ECC_DISABLED,,,
363,347492344.00,0,ERASE_RESET,,,
364,347492368.00,0,CURRENT_STATE,,,
365,347492568.00,0,,,,
366,347492592.00,0,,,,
367,347492608.00,0,,,,
368,347492632.00,0,READY_FOR_DATA,,,
369,347492712.00,0,RSVD,,,
370,347492752.00,0,FX_EVENT,,,
371,347492792.00,0,APP_CMD,,,
372,347492832.00,0,Reserved for SDIO card,,,
373,347492856.00,0,AKE_SEQ_ERROR,,,
374,347492872.00,0,Reserved for application specific commands,,,
375,347492896.00,0,Reserved for manufacturer test mode,,,
376,347492936.00,0,,,,
377,347492976.00,0,,,CRC: 0x0,
378,347493016.00,0,,,,
379,347493056.00,0,,,,
380,347493080.00,0,,,,
381,347493120.00,0,,,,
382,347493160.00,0,,,,
383,347493240.00,0,,,,
384,347493280.00,0,,,End bit,
385,365268432.00,0,,,Start bit,CMD33 (ERASE_WR_BLK_END): CMD33
386,365268448.00,1,,,Transmission: host,
387,365268472.00,1,,,Command: ERASE_WR_BLK_END (33),
388,365268488.00,0,,,,
389,365268512.00,0,,,,
390,365268528.00,0,,,,
391,365268552.00,0,,,,
392,365268576.00,1,,,,
393,365268592.00,1,,,Argument: 0x88000000,
394,365268616.00,0,,,,
395,365268632.00,0,,,,
396,365268656.00,0,,,,
397,365268672.00,1,,,,
398,365268696.00,0,,,,
399,365268736.00,0,,,,
400,365268752.00,0,,,,
401,365268776.00,0,,,,
402,365268816.00,0,,,,
403,365268856.00,0,,,,
404,365268880.00,0,,,,
405,365268896.00,0,,,,
406,365268920.00,0,,,,
407,365268936.00,0,,,,
408,365268960.00,0,,,,
409,365268976.00,0,,,,
410,365269000.00,0,,,,
411,365269016.00,0,,,,
412,365269040.00,0,,,,
413,365269080.00,0,,,,
414,365269120.00,0,,,,
415,365269160.00,0,,,,
416,365269184.00,0,,,,
417,365269200.00,0,,,,
418,365269224.00,0,,,,
419,365269240.00,0,,,,
420,365269264.00,0,,,,
421,365269280.00,0,,,,
422,365269304.00,0,,,,
423,365269344.00,0,,,,
424,365269384.00,0,,,,
425,365269424.00,0,,,CRC: 0x0,
426,365269464.00,0,,,,
427,365269488.00,0,,,,
428,365269504.00,0,,,,
429,365269528.00,0,,,,
430,365269544.00,0,,,,
431,365687280.00,0,,,,
432,365687320.00,0,,,End bit,
433,365687376.00,0,,,Start bit,Response: R1
434,365687400.00,0,,,Transmission: card,
435,365687440.00,0,,,Command: GO_IDLE_STATE (0),
436,365687480.00,0,,,,
437,365687504.00,0,,,,
438,365687520.00,0,,,,
439,365687544.00,0,,,,
440,365687560.00,0,,,,
441,365687584.00,0,OUT_OF_RANGE,Card status,Argument: 0x00000000,
442,365687600.00,0,ADDRESS_ERROR,,,
443,365687624.00,0,BLOCK_LEN_ERROR,,,
444,365687640.00,0,ERASE_SEQ_ERROR,,,
445,365687664.00,0,ERASE_PARAM,,,
446,365687704.00,0,WP_VIOLATION,,,
447,365687744.00,0,CARD_IS_LOCKED,,,
448,365687824.00,0,LOCK_UNLOCK_FAILED,,,
449,365687864.00,0,COM_CRC_ERROR,,,
450,365687904.00,0,ILLEGAL_COMMAND,,,
451,365688048.00,0,CARD_ECC_FAILED,,,
452,365688128.00,0,CC_ERROR,,,
453,365688312.00,0,ERROR,,,
454,365688352.00,0,Reserved,,,
455,365688392.00,0,Reserved for DEFERRED_RESPONSE,,,
456,365688432.00,0,CSD_OVERWRITE,,,
457,365688472.00,0,WP_ERASE_SKIP,,,
458,365688512.00,0,CARD_ECC_DISABLED,,,
459,365688536.00,0,ERASE_RESET,,,
460,365688552.00,0,CURRENT_STATE,,,
461,365688576.00,0,,,,
462,365688592.00,0,,,,
463,365688616.00,0,,,,
464,365688656.00,0,READY_FOR_DATA,,,
465,365688696.00,0,RSVD,,,
466,365688736.00,0,FX_EVENT,,,
467,365688776.00,0,APP_CMD,,,
468,365688816.00,0,Reserved for SDIO card,,,
469,365688856.00,0,AKE_SEQ_ERROR,,,
470,365688896.00,0,Reserved for application specific commands,,,
471,365688920.00,0,Reserved for manufacturer test mode,,,
472,365689000.00,0,,,,
473,365689040.00,0,,,CRC: 0x0,
474,365689080.00,0,,,,
475,365689120.00,0,,,,
476,365689160.00,0,,,,
477,365689304.00,0,,,,
478,365689728.00,0,,,,
479,365689768.00,0,,,,
480,365690072.00,0,,,End bit,
481,440245752.00,0,,,Start bit,CMD0 (GO_IDLE_STATE): Reset all SD cards
482,440245776.00,1,,,Transmission: host,
483,440245816.00,0,,,Command: GO_IDLE_STATE (0),
484,440245856.00,0,,,,
485,440245896.00,0,,,,
486,440245936.00,0,,,,
487,440245960.00,0,,,,
488,440245976.00,0,,,,
489,440246000.00,0,,Stuff bits,Argument: 0x00000000,
490,440246016.00,0,,,,
491,440246040.00,0,,,,
492,440246080.00,0,,,,
493,440246096.00,0,,,,
494,440246120.00,0,,,,
495,440246160.00,0,,,,
496,440246200.00,0,,,,
497,440246240.00,0,,,,
498,440246264.00,0,,,,
499,440246280.00,0,,,,
500,440246304.00,0,,,,
501,440246320.00,0,,,,
502,440246344.00,0,,,,
503,440246360.00,0,,,,
504,440246384.00,0,,,,
505,440246400.00,0,,,,
506,440246424.00,0,,,,
507,440246464.00,0,,,,
508,440246504.00,0,,,,
509,440246544.00,0,,,,
510,440246584.00,0,,,,
511,440246624.00,0,,,,
512,440246648.00,0,,,,
513,440246664.00,0,,,,
514,440246688.00,0,,,,
515,440246704.00,0,,,,
516,440246728.00,0,,,,
517,440246768.00,0,,,,
518,440634032.00,0,,,,
519,440634072.00,0,,,,
520,440634112.00,0,,,,
521,440634152.00,0,,,CRC: 0x0,
522,440634176.00,0,,,,
523,440634192.00,0,,,,
524,440634216.00,0,,,,
525,440634232.00,0,,,,
526,440634256.00,0,,,,
527,440634272.00,0,,,,
528,440634296.00,0,,,End bit,
529,515376224.00,0,,,Start bit,CMD32 (ERASE_WR_BLK_START): CMD32
530,515376248.00,1,,,Transmission: host,
531,515376264.00,1,,,Command: ERASE_WR_BLK_START (32),
532,515376288.00,0,,,,
533,515376328.00,0,,,,
534,515376368.00,0,,,,
535,515376408.00,0,,,,
536,515376432.00,0,,,,
537,515376448.00,0,,,Argument: 0x00000000,
538,515376472.00,0,,,,
539,515376488.00,0,,,,
540,515376512.00,0,,,,
541,515376552.00,0,,,,
542,515376592.00,0,,,,
543,515376632.00,0,,,,
544,515376656.00,0,,,,
545,515376672.00,0,,,,
546,515376696.00,0,,,,
547,515376712.00,0,,,,
548,515376736.00,0,,,,
549,515376752.00,0,,,,
550,515376776.00,0,,,,
551,515376792.00,0,,,,
552,515376816.00,0,,,,
553,515376856.00,0,,,,
554,515376896.00,0,,,,
555,515376936.00,0,,,,
556,515376960.00,0,,,,
557,515376976.00,0,,,,
558,515377000.00,0,,,,
559,515377016.00,0,,,,
560,515377040.00,0,,,,
561,515377080.00,0,,,,
562,515377120.00,0,,,,
563,515377160.00,0,,,,
564,515377200.00,0,,,,
565,515377240.00,0,,,,
566,515700016.00,0,,,,
567,515700040.00,0,,,,
568,515700056.00,0,,,,
569,515700080.00,0,,,CRC: 0x0,
570,515700096.00,0,,,,
571,515700120.00,0,,,,
572,515700160.00,0,,,,
573,515700200.00,0,,,,
574,515700240.00,0,,,,
575,515700264.00,0,,,,
576,515700280.00,0,,,End bit,
577,515700320.00,0,,,Start bit,Response: R1
578,515700344.00,0,,,Transmission: card,
579,515700360.00,0,,,Command: GO_IDLE_STATE (0),
580,515700384.00,0,,,,
581,515700424.00,0,,,,
582,515700464.00,0,,,,
583,515700504.00,0,,,,
584,515700544.00,0,,,,
585,515700584.00,0,OUT_OF_RANGE,Card status,Argument: 0x00000000,
586,515700608.00,0,ADDRESS_ERROR,,,
587,515700728.00,0,BLOCK_LEN_ERROR,,,
588,515700768.00,0,ERASE_SEQ_ERROR,,,
589,515700808.00,0,ERASE_PARAM,,,
590,515700848.00,0,WP_VIOLATION,,,
591,515701032.00,0,CARD_IS_LOCKED,,,
592,515701072.00,0,LOCK_UNLOCK_FAILED,,,
593,515701152.00,0,COM_CRC_ERROR,,,
594,515701192.00,0,ILLEGAL_COMMAND,,,
595,515701232.00,0,CARD_ECC_FAILED,,,
596,515701296.00,0,CC_ERROR,,,
597,515701312.00,0,ERROR,,,
598,515701336.00,0,Reserved,,,
599,515701376.00,0,Reserved for DEFERRED_RESPONSE,,,
600,515701416.00,0,CSD_OVERWRITE,,,
601,515701456.00,0,WP_ERASE_SKIP,,,
602,515701496.00,0,CARD_ECC_DISABLED,,,
603,515701536.00,0,ERASE_RESET,,,
604,515701576.00,0,CURRENT_STATE,,,
605,515701616.00,0,,,,
606,515701640.00,0,,,,
607,515701680.00,0,,,,
608,515701720.00,0,READY_FOR_DATA,,,
609,515701800.00,0,RSVD,,,
610,515701840.00,0,FX_EVENT,,,
611,515701880.00,0,APP_CMD,,,
612,515701920.00,0,Reserved for SDIO card,,,
613,515701984.00,0,AKE_SEQ_ERROR,,,
614,515702024.00,0,Reserved for application specific commands,,,
615,515702368.00,0,Reserved for manufacturer test mode,,,
616,515702408.00,0,,,,
617,515702448.00,0,,,CRC: 0x0,
618,515703560.00,0,,,,
619,515703640.00,0,,,,
620,515703944.00,0,,,,
621,515703984.00,0,,,,
622,515705216.00,0,,,,
623,515707096.00,0,,,,
624,515707400.00,0,,,End bit,
625,606078192.00,0,,,Start bit,CMD33 (ERASE_WR_BLK_END): CMD33
626,606078216.00,1,,,Transmission: host,
627,606078232.00,1,,,Command: ERASE_WR_BLK_END (33),
628,606078256.00,0,,,,
629,606078272.00,0,,,,
630,606078296.00,0,,,,
631,606078312.00,0,,,,
632,606078336.00,1,,,,
633,606078376.00,1,,,Argument: 0x80000000,
634,606078416.00,0,,,,
635,606078456.00,0,,,,
636,606078480.00,0,,,,
637,606078496.00,0,,,,
638,606078520.00,0,,,,
639,606078536.00,0,,,,
640,606078560.00,0,,,,
641,606078576.00,0,,,,
642,606078600.00,0,,,,
643,606078640.00,0,,,,
644,606078680.00,0,,,,
645,606078704.00,0,,,,
646,606078720.00,0,,,,
647,606078744.00,0,,,,
648,606078760.00,0,,,,
649,606078784.00,0,,,,
650,606078800.00,0,,,,
651,606078824.00,0,,,,
652,606078840.00,0,,,,
653,606078864.00,0,,,,
654,606078904.00,0,,,,
655,606078944.00,0,,,,
656,606078968.00,0,,,,
657,606078984.00,0,,,,
658,606079008.00,0,,,,
659,606079024.00,0,,,,
660,606079048.00,0,,,,
661,606079064.00,0,,,,
662,606079088.00,0,,,,
663,606079128.00,0,,,,
664,606079168.00,0,,,,
665,606079208.00,0,,,CRC: 0x0,
666,606079232.00,0,,,,
667,606079248.00,0,,,,
668,606079272.00,0,,,,
669,606079288.00,0,,,,
670,606079312.00,0,,,,
671,606473304.00,0,,,,
672,606473328.00,0,,,End bit,
673,606473368.00,0,,,Start bit,Response: R1
674,606473384.00,0,,,Transmission: card,
675,606473408.00,0,,,Command: GO_IDLE_STATE (0),
676,606473448.00,0,,,,
677,606473488.00,0,,,,
678,606473528.00,0,,,,
679,606473552.00,0,,,,
680,606473568.00,0,,,,
